Time required to calculate correlation: 926 ms.
0              1
1       0.957269
2       0.847299
3       0.706101
4        0.56469
5       0.441171
6       0.342028
7       0.266376
8       0.209913
9       0.167701
10       0.135563
11       0.110444
12      0.0903292
13      0.0739689
14      0.0605818
15      0.0496527
16      0.0408744
17      0.0339824
18      0.0285854
19      0.0242536
20       0.020675
21      0.0176512
22      0.0150378
23       0.012715
24      0.0105558
25      0.0084403
26     0.00629325
27     0.00410746
28     0.00194859
29   -4.73985e-05
30    -0.00170612
31    -0.00292127
32    -0.00372414
33    -0.00423194
34    -0.00460653
35    -0.00497777
36    -0.00542726
37    -0.00604313
38    -0.00688869
39    -0.00800821
40    -0.00935197
41     -0.0107138
42     -0.0119042
43     -0.0128364
44     -0.0135472
45     -0.0141065
46     -0.0145534
47      -0.014831
48     -0.0148309
49     -0.0145531
50     -0.0141656
51     -0.0138991
52     -0.0139381
53     -0.0143423
54     -0.0149918
55     -0.0156883
56     -0.0162594
57     -0.0166629
58     -0.0169561
59      -0.017252
60      -0.017622
61     -0.0180496
62     -0.0184262
63     -0.0186618
64     -0.0188137
65     -0.0189811
66     -0.0192122
67     -0.0195199
68     -0.0198879
69     -0.0203166
70     -0.0207953
71     -0.0213087
72     -0.0218524
73     -0.0223851
74     -0.0229338
75      -0.023555
76     -0.0242432
77     -0.0249677
78     -0.0257691
79       -0.02672
80     -0.0278445
81     -0.0290703
82     -0.0302779
83     -0.0313726
84     -0.0323402
85     -0.0331856
86     -0.0338399
87     -0.0341696
88     -0.0340429
89     -0.0334252
90     -0.0324299
91      -0.031239
92     -0.0300343
93     -0.0290077
94     -0.0282847
95     -0.0278934
96     -0.0278466
97     -0.0281614
98     -0.0287642
99     -0.0294893
100     -0.0301708
101     -0.0306554
102     -0.0308555
103      -0.030804
104      -0.030627
105     -0.0304766
106      -0.030414
107     -0.0303724
108     -0.0302547
109     -0.0300425
110     -0.0297938
111     -0.0295587
112     -0.0293725
113       -0.02924
114     -0.0290988
115     -0.0288716
116     -0.0285513
117     -0.0282104
118     -0.0279838
119     -0.0279963
120     -0.0282896
121     -0.0287356
122     -0.0291469
123      -0.029387
124     -0.0294055
125     -0.0292327
126     -0.0289675
127     -0.0287637
128     -0.0287124
129     -0.0288573
130     -0.0291687
131     -0.0296258
132      -0.030262
133     -0.0311099
134     -0.0321139
135      -0.033034
136     -0.0335554
137     -0.0335105
138      -0.033017
139     -0.0323471
140     -0.0317522
141     -0.0313185
142     -0.0310217
143      -0.030871
144     -0.0309281
145     -0.0312362
146     -0.0317442
147     -0.0323688
148     -0.0330879
149     -0.0338967
150      -0.034687
151     -0.0353513
152     -0.0358344
153     -0.0361228
154     -0.0362345
155     -0.0361485
156     -0.0358518
157     -0.0353886
158     -0.0348039
159     -0.0341468
160     -0.0334998
161     -0.0329747
162     -0.0326386
163     -0.0324442
164     -0.0322289
165     -0.0318162
166     -0.0311299
167     -0.0302892
168     -0.0294619
169     -0.0287469
170     -0.0281493
171     -0.0276327
172     -0.0271475
173     -0.0267124
174     -0.0264358
175     -0.0264258
176     -0.0266949
177     -0.0271506
178     -0.0276441
179     -0.0280869
180     -0.0285799
181     -0.0293654
182      -0.030523
183     -0.0318347
184     -0.0328704
185     -0.0331944
186      -0.032635
187     -0.0313503
188     -0.0297463
189     -0.0282966
190     -0.0273424
191     -0.0269472
192     -0.0269628
193     -0.0271704
194     -0.0273739
195     -0.0274863
196     -0.0275678
197     -0.0276912
198     -0.0278561
199     -0.0279919
200     -0.0279902
201     -0.0277399
202     -0.0271815
203     -0.0264357
204     -0.0258036
205     -0.0255998
206     -0.0260706
207      -0.027359
208     -0.0293393
209     -0.0316314
210     -0.0337929
211     -0.0355274
212     -0.0367409
213     -0.0374605
214     -0.0377365
215     -0.0375822
216      -0.037015
217     -0.0360649
218     -0.0348346
219     -0.0334816
220     -0.0321737
221     -0.0309975
222      -0.029874
223     -0.0287128
224     -0.0275562
225     -0.0265354
226     -0.0258064
227      -0.025435
228     -0.0253724
229     -0.0254773
230     -0.0256277
231     -0.0257843
232      -0.025956
233     -0.0261271
234     -0.0262257
235     -0.0261797
236     -0.0260309
237     -0.0259773
238     -0.0262048
239     -0.0267559
240     -0.0275437
241     -0.0284015
242     -0.0291719
243     -0.0297571
244     -0.0300665
245     -0.0300307
246     -0.0296765
247     -0.0290816
248     -0.0283464
249     -0.0275166
250     -0.0266069
251     -0.0256016
252      -0.024481
253     -0.0232273
254     -0.0218716
255     -0.0205659
256     -0.0196522
257     -0.0194295
258     -0.0199714
259     -0.0210929
260     -0.0224369
261     -0.0236024
262     -0.0243407
263     -0.0246654
264     -0.0248091
265     -0.0251064
266     -0.0258073
267      -0.026941
268     -0.0283395
269     -0.0297149
270     -0.0308508
271     -0.0317152
272     -0.0324265
273     -0.0330683
274     -0.0335135
275     -0.0336282
276     -0.0334066
277     -0.0330229
278     -0.0326379
279     -0.0322349
280     -0.0316744
281      -0.030913
282     -0.0300411
283     -0.0293081
284      -0.028957
285     -0.0290299
286     -0.0293504
287      -0.029653
288     -0.0296858
289      -0.029351
290     -0.0287438
291     -0.0280306
292     -0.0272444
293      -0.026283
294     -0.0251434
295     -0.0239718
296     -0.0229948
297     -0.0223775
298     -0.0220485
299     -0.0217987
300     -0.0214348
301      -0.020889
302     -0.0202203
303     -0.0195533
304     -0.0190393
305     -0.0188167
306     -0.0188928
307     -0.0192062
308     -0.0197026
309      -0.020357
310      -0.021079
311     -0.0217373
312     -0.0222643
313      -0.022464
314     -0.0222377
315     -0.0217571
316     -0.0214043
317     -0.0214548
318     -0.0219283
319     -0.0226388
320     -0.0233624
321     -0.0239959
322     -0.0245401
323      -0.025189
324     -0.0261892
325     -0.0275309
326     -0.0289697
327     -0.0302307
328     -0.0311387
329     -0.0316249
330     -0.0318231
331     -0.0319814
332      -0.032174
333     -0.0322643
334     -0.0319697
335     -0.0311305
336     -0.0297186
337     -0.0278564
338     -0.0258143
339     -0.0239294
340      -0.022453
341     -0.0215423
342     -0.0211667
343      -0.021241
344     -0.0216607
345     -0.0223183
346     -0.0232164
347     -0.0242836
348     -0.0253235
349     -0.0261877
350     -0.0269049
351     -0.0277244
352     -0.0289303
353     -0.0306402
354     -0.0326803
355     -0.0347926
356     -0.0367996
357     -0.0385418
358     -0.0398842
359      -0.040769
360     -0.0411947
361     -0.0412537
362     -0.0410728
363     -0.0407365
364      -0.040344
365     -0.0398368
366     -0.0390998
367     -0.0381023
368     -0.0371206
369     -0.0364268
370     -0.0360074
371     -0.0356257
372      -0.034976
373     -0.0338667
374      -0.032261
375     -0.0302655
376     -0.0280854
377     -0.0259646
378     -0.0241445
379     -0.0228481
380     -0.0222806
381     -0.0224477
382     -0.0231829
383     -0.0240828
384     -0.0247975
385       -0.02536
386     -0.0260386
387     -0.0271238
388     -0.0285297
389     -0.0298878
390     -0.0307422
391     -0.0307841
392     -0.0300215
393     -0.0287616
394     -0.0274031
395     -0.0261548
396     -0.0250219
397     -0.0239231
398     -0.0229198
399     -0.0221327
400     -0.0215757
401     -0.0212301
402     -0.0212196
403     -0.0215314
404     -0.0219662
405     -0.0224074
406     -0.0229962
407     -0.0237212
408     -0.0244592
409     -0.0251493
410     -0.0255825
411     -0.0255568
412     -0.0251588
413     -0.0246003
414     -0.0241644
415     -0.0240685
416     -0.0243469
417     -0.0247525
418     -0.0250033
419     -0.0248976
420     -0.0244593
421     -0.0239204
422     -0.0233265
423     -0.0225716
424     -0.0214342
425     -0.0200225
426     -0.0185746
427     -0.0171941
428     -0.0160921
429     -0.0153941
430     -0.0148525
431     -0.0142308
432     -0.0135493
433     -0.0130406
434     -0.0130229
435     -0.0136969
436     -0.0149303
437     -0.0163881
438     -0.0178103
439      -0.019027
440     -0.0197263
441     -0.0197489
442     -0.0191173
443     -0.0182763
444     -0.0175487
445     -0.0167781
446     -0.0155632
447     -0.0136697
448     -0.0110955
449    -0.00811868
450    -0.00465916
451    -0.00076648
452     0.00329133
453     0.00697144
454     0.00983882
455      0.0116349
456      0.0123677
457      0.0124176
458      0.0121241
459      0.0115532
460      0.0109249
461      0.0102677
462     0.00948197
463     0.00833097
464     0.00665946
465     0.00468572
466     0.00260995
467    0.000644428
468     -0.0011291
469    -0.00312515
470    -0.00567059
471    -0.00848597
472     -0.0111882
473     -0.0136748
474     -0.0160341
475     -0.0181905
476     -0.0196071
477     -0.0198883
478     -0.0185856
479     -0.0156553
480     -0.0117817
481    -0.00802009
482    -0.00518902
483    -0.00359896
484    -0.00292602
485    -0.00185542
486    0.000833125
487     0.00457883
488     0.00790459
489      0.0093083
490     0.00837874
491     0.00470507
492    -0.00142883
493    -0.00852536
494     -0.0139999
495     -0.0154017
496     -0.0123584
497    -0.00790927
498    -0.00226353
499     0.00255296
